light scattering data: 
Rayleigh ratio (1/cm) as a function of detector
time (min),2
0.002266666666666667,2.579567805365054e-09
0.01045644808743169,2.741632572540403e-09
0.01864622950819672,2.865942614239786e-09
0.02683601092896175,2.963593268985203e-09
0.03502579234972678,3.050062231356883e-09
0.0432155737704918,3.142417946280803e-09
0.05140535519125683,3.256315495944443e-09
0.05959513661202186,3.403428870895831e-09
0.06778491803278688,3.589718724388026e-09
0.07597469945355191,3.814877758841146e-09
0.08416448087431694,4.072983050973519e-09
0.09235426229508197,4.354160878400336e-09
0.100544043715847,4.646773463946861e-09
0.108733825136612,4.939599086418705e-09
0.116923606557377,5.223392265215743e-09
0.1251133879781421,5.491525741125807e-09
0.1333031693989071,5.739797113118325e-09
0.1414929508196721,5.965586935065255e-09
0.1496827322404372,6.166956489919854e-09
0.1578725136612022,6.342035393213007e-09
0.1660622950819672,6.488920226846752e-09
0.1742520765027323,6.606092817982143e-09
0.1824418579234973,6.69314197703431e-09
0.1906316393442623,6.751447155373273e-09
0.1988214207650273,6.784568848223648e-09
0.2070112021857924,6.798117490480438e-09
0.2152009836065574,6.799108929074158e-09
0.2233907650273224,6.79492335136566e-09
0.2315805464480874,6.792072909918641e-09
0.2397703278688525,6.795092566642638e-09
0.2479601092896175,6.805765828229926e-09
0.2561498907103825,6.82280632861516e-09
0.2643396721311475,6.841994889530307e-09
0.2725294535519126,6.856745202924429e-09
0.2807192349726776,6.859153613648118e-09
0.2889090163934426,6.841316031162424e-09
0.2970987978142077,6.796732445397206e-09
0.3052885792349727,6.721532053147138e-09
0.3134783606557376,6.615265949777843e-09
0.3216681420765027,6.48098619036023e-09
0.3298579234972677,6.324561344876977e-09
0.3380477049180328,6.153358090763716e-09
0.3462374863387978,5.974547023914137e-09
0.3544272677595628,5.793560210862337e-09
0.3626170491803279,5.613125063367372e-09
0.3708068306010929,5.433177867474813e-09
0.3789966120218579,5.251694229296691e-09
0.387186393442623,5.066109518859463e-09
0.3953761748633879,4.874784809909967e-09
0.403565956284153,4.678073619939484e-09
0.411755737704918,4.478737073610254e-09
0.419945519125683,4.281680577462074e-09
0.4281353005464481,4.093249945970625e-09
0.4363250819672131,3.920312577189697e-09
0.4445148633879781,3.769449285887396e-09
0.4527046448087432,3.646352311671639e-09
0.4608944262295082,3.55539472542414e-09
0.4690842076502733,3.499365586059249e-09
0.4772739890710382,3.479238051738552e-09
0.4854637704918032,3.493757942899757e-09
0.4936535519125683,3.539906578652086e-09
0.5018433333333333,3.612463785173589e-09
0.5100331147540983,3.704289251076733e-09
0.5182228961748634,3.806835590128228e-09
0.5264126775956284,3.910659164475069e-09
0.5346024590163934,4.00633713928773e-09
0.5427922404371585,4.084753872344031e-09
0.5509820218579234,4.137926370081608e-09
0.5591718032786885,4.159845350399952e-09
0.5673615846994535,4.146219916401558e-09
0.5755513661202185,4.094816459779685e-09
0.5837411475409836,4.005196239050714e-09
0.5919309289617486,3.878951443488499e-09
0.6001207103825136,3.71955806888693e-09
0.6083104918032787,3.532636763054471e-09
0.6165002732240437,3.325276270197376e-09
0.6246900546448086,3.105728688830869e-09
0.6328798360655737,2.883143975359627e-09
0.6410696174863387,2.666223308901682e-09
0.6492593989071038,2.463448604389162e-09
0.6574491803278688,2.28200909434552e-09
0.6656389617486338,2.12741781467879e-09
0.6738287431693989,2.003229864671077e-09
0.6820185245901639,1.910925854897503e-09
0.690208306010929,1.849933615140683e-09
0.698398087431694,1.818305903957609e-09
0.7065878688524589,1.813000947366442e-09
0.714777650273224,1.830660067527275e-09
0.722967431693989,1.867808545411151e-09
0.731157213114754,1.920862547152501e-09
0.7393469945355191,1.986297737442189e-09
0.7475367759562841,2.060338437912919e-09
0.7557265573770491,2.138738103225808e-09
0.7639163387978142,2.216687250462504e-09
0.7721061202185792,2.289284216776689e-09
0.7802959016393443,2.352997048340321e-09
0.7884856830601092,2.405965672045868e-09
0.7966754644808742,2.448692104900854e-09
0.8048652459016393,2.483807339319495e-09
0.8130550273224043,2.515413961609271e-09
0.8212448087431694,2.547609222702392e-09
0.8294345901639344,2.583560598122108e-09
0.8376243715846994,2.624532041857929e-09
0.8458141530054645,2.669125585916311e-09
0.8540039344262295,2.713830914332616e-09
0.8621937158469944,2.753546963585203e-09
0.8703834972677595,2.782856935877893e-09
0.8785732786885245,2.797553341523463e-09
0.8867630601092895,2.795607751368704e-09
0.8949528415300546,2.777535484282463e-09
0.9031426229508196,2.746583895736901e-09
0.9113324043715847,2.70824261465264e-09
0.9195221857923497,2.669186245707099e-09
0.9277119672131147,2.636276954182912e-09
0.9359017486338798,2.615136931158118e-09
0.9440915300546447,2.609893438423285e-09
0.9522813114754098,2.622803666788054e-09
0.9604710928961748,2.654388477448318e-09
0.9686608743169398,2.704255833920636e-09
0.9768506557377049,2.770935431420352e-09
0.9850404371584699,2.851966690748533e-09
0.9932302185792349,2.943200670152315e-09
1.00142,3.038065218738579e-09
1.009609781420765,3.127524025097092e-09
1.01779956284153,3.200006255835753e-09
1.025989344262295,3.242687733909915e-09
1.03417912568306,3.243394197792743e-09
1.042368907103825,3.192593629126797e-09
1.05055868852459,3.085183264365751e-09
1.058748469945355,2.921913078834693e-09
1.06693825136612,2.709008895207584e-09
1.075128032786885,2.456846872048416e-09
1.08331781420765,2.178367658683867e-09
1.091507595628415,1.887538699305214e-09
1.09969737704918,1.597474325154301e-09
1.107887158469945,1.318992038078339e-09
1.11607693989071,1.060813292942936e-09
1.124266721311475,8.282804553771656e-10
1.13245650273224,6.239427529266304e-10
1.140646284153005,4.477631515458201e-10
1.14883606557377,2.980602738838236e-10
1.157025846994535,1.724898717406724e-10
1.165215628415301,6.846423127256101e-11
1.173405409836066,-1.625782972283624e-11
1.181595191256831,-8.352487362805256e-11
1.189784972677596,-1.349232394272965e-10
1.197974754098361,-1.718364521102672e-10
1.206164535519126,-1.958610131190201e-10
1.214354316939891,-2.092735591230724e-10
1.222544098360656,-2.152282208667046e-10
1.230733879781421,-2.173496816252339e-10
1.238923661202186,-2.197588544585297e-10
1.247113442622951,-2.265328853632602e-10
1.255303224043716,-2.410766731099788e-10
1.263493005464481,-2.65602481895396e-10
1.271682786885246,-3.007091113271253e-10
1.279872568306011,-3.456876364142701e-10
1.288062349726776,-3.980689244039941e-10
1.296252131147541,-4.546584971608907e-10
1.304441912568306,-5.121500579037209e-10
1.312631693989071,-5.678091987863065e-10
1.320821475409836,-6.198905370826488e-10
1.329011256830601,-6.675187534018534e-10
1.337201038251366,-7.111557683013242e-10
1.345390819672131,-7.516416651549678e-10
1.353580601092896,-7.898128046195526e-10
1.361770382513661,-8.263080573093594e-10
1.369960163934426,-8.611253445186249e-10
1.378149945355191,-8.934730938839812e-10
1.386339726775956,-9.218770904012376e-10
1.394529508196721,-9.443757708633226e-10
1.402719289617486,-9.587651821869653e-10
1.410909071038251,-9.629145879688054e-10
1.419098852459016,-9.548167024473131e-10
1.427288633879781,-9.329200104185716e-10
1.435478415300546,-8.961757297158869e-10
1.443668196721311,-8.442401076725461e-10
1.451857978142076,-7.775858568679725e-10
1.460047759562841,-6.973875334272582e-10
1.468237540983607,-6.051668425451853e-10
1.476427322404372,-5.027423195985617e-10
1.484617103825137,-3.91449107830254e-10
1.492806885245902,-2.720597300955558e-10
1.500996666666667,-1.446181645087487e-10
1.509186448087432,-8.497904900819027e-12
1.517376229508197,1.368763566085579e-10
1.525566010928962,2.915606500319914e-10
1.533755792349727,4.540159618667935e-10
1.541945573770492,6.209392285431602e-10
1.550135355191257,7.886628658887307e-10
1.558325136612022,9.514032683617574e-10
1.566514918032787,1.102675890947216e-09
1.574704699453552,1.235044228737127e-09
1.582894480874317,1.341495715723113e-09
1.591084262295082,1.41565807049465e-09
1.599274043715847,1.452222351318188e-09
1.607463825136612,1.447549221111571e-09
1.615653606557377,1.400027102859433e-09
1.623843387978142,1.310483816286661e-09
1.632033169398907,1.18205643577309e-09
1.640222950819672,1.019819351754354e-09
1.648412732240437,8.303571065807444e-10
1.656602513661202,6.210182877132514e-10
1.664792295081967,3.992782043510812e-10
1.672982076502732,1.723782096343034e-10
1.681171857923497,-5.306090734099853e-11
1.689361639344262,-2.710702199054601e-10
1.697551420765027,-4.764622938836268e-10
1.705741202185792,-6.648133294745539e-10
1.713930983606557,-8.326886413033424e-10
1.722120765027322,-9.775063824766785e-10
1.730310546448087,-1.097790514546859e-09
1.738500327868852,-1.193133738028695e-09
1.746690109289617,-1.264104957515395e-09
1.754879890710382,-1.312049650395527e-09
1.763069672131147,-1.338973892817294e-09
1.771259453551912,-1.347314970907572e-09
1.779449234972678,-1.339968563390891e-09
1.787639016393443,-1.3202287768028e-09
1.795828797814208,-1.29168878505498e-09
1.804018579234973,-1.258379194885731e-09
1.812208360655738,-1.224330151021987e-09
1.820398142076503,-1.193342444856201e-09
1.828587923497268,-1.168571435281836e-09
1.836777704918033,-1.151888068508695e-09
1.844967486338798,-1.143780344020245e-09
1.853157267759563,-1.14307542170941e-09
1.861347049180328,-1.147205375896716e-09
1.869536830601093,-1.152414123939458e-09
1.877726612021858,-1.154270704101952e-09
1.885916393442623,-1.148549358990616e-09
1.894106174863388,-1.131806247961712e-09
1.902295956284153,-1.102028028170342e-09
1.910485737704918,-1.058882678871977e-09
1.918675519125683,-1.003741032345336e-09
1.926865300546448,-9.394698009242885e-10
1.935055081967213,-8.696096774961731e-10
1.943244863387978,-7.977446234684997e-10
1.951434644808743,-7.26712004393903e-10
1.959624426229508,-6.579702374078309e-10
1.967814207650273,-5.913493262810808e-10
1.976003989071038,-5.252374833821991e-10
1.984193770491803,-4.570774018403007e-10
1.992383551912568,-3.840220303403077e-10
2.000573333333334,-3.038180174041161e-10
2.008763114754098,-2.151880713104927e-10
2.016952896174864,-1.183949776555706e-10
2.025142677595629,-1.521935962943605e-11
2.033332459016393,9.104028613820388e-11
2.041522240437159,1.959980809460552e-10
2.049712021857923,2.944726428816749e-10
2.057901803278689,3.809862982643592e-10
2.066091584699454,4.505564012769833e-10
2.074281366120219,4.990104316334784e-10
2.082471147540984,5.235735467608956e-10
2.090660928961749,5.233332683287489e-10
2.098850710382514,4.988848999122784e-10
2.107040491803279,4.527606775757327e-10
2.115230273224044,3.887127401648846e-10
2.123420054644809,3.113967156997152e-10
2.131609836065574,2.260982965940792e-10
2.139799617486339,1.384392342249107e-10
2.147989398907104,5.424480306517481e-11
2.156179180327869,-2.062691123804814e-11
2.164368961748634,-8.079445256745656e-11
2.172558743169399,-1.215262474455244e-10
2.180748524590164,-1.389438104263816e-10
2.188938306010929,-1.307752910137144e-10
2.197128087431694,-9.658742349203454e-11
2.205317868852459,-3.817857942650676e-11
2.213507650273224,4.038582713139172e-11
2.221697431693989,1.327597209072167e-10
2.229887213114754,2.305895474111586e-10
2.238076994535519,3.241286279893375e-10
2.246266775956284,4.031667760919589e-10
2.254456557377049,4.581357045895715e-10
2.262646338797814,4.813907344746693e-10
2.270836120218579,4.682888779668739e-10
2.279025901639344,4.177820940883839e-10
2.28721568306011,3.326149575865041e-10
2.295405464480874,2.188668470330071e-10
2.30359524590164,8.517465582034508e-11
2.311785027322404,-5.84518087273296e-11
2.31997480874317,-2.017950799655759e-10
2.328164590163935,-3.354501862781319e-10
2.336354371584699,-4.516561778827843e-10
2.344544153005465,-5.448252749422974e-10
2.352733934426229,-6.116774065714531e-10
2.360923715846995,-6.513685421717447e-10
2.36911349726776,-6.652934132921304e-10
2.377303278688525,-6.568263830005438e-10
2.38549306010929,-6.309238328863305e-10
2.393682841530055,-5.935820063806132e-10
2.40187262295082,-5.514313464800113e-10
2.410062404371585,-5.107803740912196e-10
2.41825218579235,-4.770327424732119e-10
2.426441967213115,-4.542972360600376e-10
2.43463174863388,-4.45063639433371e-10
2.442821530054645,-4.499059472201028e-10
2.45101131147541,-4.677708674358059e-10
2.459201092896175,-4.963403280569511e-10
2.46739087431694,-5.324595492126248e-10
2.475580655737705,-5.72550422083352e-10
2.48377043715847,-6.130084962760967e-10
2.491960218579235,-6.506012372037247e-10
2.50015,-6.82653813182363e-10
2.508339781420765,-7.070569133396283e-10
2.51652956284153,-7.22298725089207e-10
2.524719344262295,-7.274547387583738e-10
2.53290912568306,-7.219154745656179e-10
2.541098907103825,-7.053752065919746e-10
2.54928868852459,-6.78129517632304e-10
2.557478469945355,-6.410872828456179e-10
2.56566825136612,-5.959769845719785e-10
2.573858032786885,-5.454440425110272e-10
2.58204781420765,-4.923441973946078e-10
2.590237595628416,-4.398674434758471e-10
2.59842737704918,-3.908777097391927e-10
2.606617158469946,-3.476261242896771e-10
2.61480693989071,-3.114823482726366e-10
2.622996721311476,-2.828103285455988e-10
2.631186502732241,-2.610881494196805e-10
2.639376284153006,-2.451873317078307e-10
2.647566065573771,-2.331979857342755e-10
2.655755846994535,-2.225543368379191e-10
2.663945628415301,-2.099067956859036e-10
2.672135409836066,-1.910267811947993e-10
2.680325191256831,-1.610570293471926e-10
2.688514972677596,-1.149929102092322e-10
2.696704754098361,-4.825440888522032e-11
2.704894535519126,4.230018091666511e-11
2.713084316939891,1.575898434909189e-10
2.721274098360656,2.958544441688418e-10
2.729463879781421,4.525513006282935e-10
2.737653661202186,6.207965185427742e-10
2.745843442622951,7.922259450410176e-10
2.754033224043716,9.5802663255421e-10
2.762223005464481,1.109956461979026e-09
2.770412786885246,1.241532863813173e-09
2.778602568306011,1.348474933812725e-09
2.786792349726776,1.428888097692838e-09
2.794982131147541,1.483249747908631e-09
2.803171912568306,1.513675652431352e-09
2.811361693989071,1.523380107977466e-09
2.819551475409836,1.515935054070122e-09
2.827741256830601,1.494530580847233e-09
2.835931038251366,1.461638510665388e-09
2.844120819672131,1.41894876252495e-09
2.852310601092896,1.367781751543768e-09
2.860500382513661,1.309491393651916e-09
2.868690163934426,1.245946884747564e-09
2.876879945355191,1.179894300805648e-09
2.885069726775956,1.114943098925009e-09
2.893259508196722,1.055230046528314e-09
2.901449289617486,1.0047435271869e-09
2.909639071038252,9.666021259618953e-10
2.917828852459016,9.425279382950387e-10
2.926018633879782,9.324546014785544e-10
2.934208415300547,9.345964479342541e-10
2.942398196721312,9.457626157458069e-10
2.950587978142077,9.61893168842182e-10
2.958777759562842,9.788175013407603e-10
2.966967540983607,9.927105041648392e-10
2.975157322404372,1.000803373670314e-09
2.983347103825137,1.001603903543275e-09
2.991536885245902,9.94859006866001e-10
2.999726666666667,9.814822974953661e-10
3.007916448087432,9.632084891601227e-10
3.016106229508197,9.419826841390764e-10
3.024296010928962,9.199751911686801e-10
3.032485792349727,8.988440881443183e-10
3.040675573770492,8.794810386950648e-10
3.048865355191257,8.619023740898673e-10
3.057055136612022,8.453263902030358e-10
3.065244918032787,8.283979216222539e-10
3.073434699453552,8.095748460528835e-10
3.081624480874317,7.873296687528158e-10
3.089814262295082,7.606026214669159e-10
3.098004043715847,7.289856913204642e-10
3.106193825136612,6.926765265224027e-10
3.114383606557377,6.524226470349076e-10
3.122573387978142,6.092773784834994e-10
3.130763169398907,5.643497151857269e-10
3.138952950819672,5.1863509638623e-10
3.147142732240437,4.727410262426687e-10
3.155332513661202,4.269303449594869e-10
3.163522295081967,3.811956265872698e-10
3.171712076502732,3.353686036380549e-10
3.179901857923497,2.89342081943307e-10
3.188091639344262,2.432682534051709e-10
3.196281420765028,1.97751247064599e-10
3.204471202185792,1.537154940609472e-10
3.212660983606558,1.123492264469433e-10
3.220850765027322,7.481818748228991e-11
3.229040546448088,4.223790332354566e-11
3.237230327868853,1.544039602212876e-11
3.245420109289618,-4.956650509153023e-12
3.253609890710383,-1.840594807099484e-11
3.261799672131148,-2.450715991334167e-11
3.269989453551913,-2.283688060004183e-11
3.278179234972678,-1.314813639897372e-11
3.286369016393443,4.80709309258886e-12
3.294558797814208,3.065746879906286e-11
3.302748579234973,6.326650774002657e-11
3.310938360655738,1.004588329444478e-10
3.319128142076503,1.391793618814153e-10
3.327317923497268,1.757336055080798e-10
3.335507704918033,2.064053955584792e-10
3.343697486338798,2.28287201240221e-10
3.351887267759563,2.399982189450375e-10
3.360077049180328,2.422075730872395e-10
3.368266830601093,2.376206713257895e-10
3.376456612021858,2.308031124728498e-10
3.384646393442623,2.271078517450025e-10
3.392836174863388,2.316842722314741e-10
3.401025956284153,2.482348144063164e-10
3.409215737704918,2.783183860488162e-10
3.417405519125683,3.209059749953561e-10
3.425595300546448,3.723907500101592e-10
3.433785081967213,4.272007530351579e-10
3.441974863387978,4.788936094922157e-10
3.450164644808743,5.210747810556394e-10
3.458354426229509,5.48396250303774e-10
3.466544207650273,5.573404949809024e-10
3.474733989071038,5.464764602825126e-10
3.482923770491803,5.164665917581089e-10
3.491113551912568,4.69643308548327e-10
3.499303333333334,4.095513301441657e-10
3.507493114754098,3.403614012228883e-10
3.515682896174864,2.665038324149811e-10
3.523872677595628,1.922295594163748e-10
3.532062459016394,1.214501614657061e-10
3.540252240437158,5.748175343591597e-11
3.548442021857924,3.192206307819652e-12
3.556631803278689,-3.92166539698316e-11
3.564821584699454,-6.820558345013646e-11
3.573011366120219,-8.281764103672853e-11
3.581201147540984,-8.266531093764971e-11
3.589390928961749,-6.748970728307024e-11
3.597580710382514,-3.705937614953755e-11
3.605770491803279,8.775066929209473e-12
3.613960273224044,7.005279696893977e-11
3.622150054644809,1.462449504047029e-10
3.630339836065574,2.362147282826803e-10
3.638529617486339,3.37852626845584e-10
3.646719398907104,4.481054682621533e-10
3.654909180327869,5.633383565821224e-10
3.663098961748634,6.799221342738283e-10
3.671288743169399,7.948523543379834e-10
3.679478524590164,9.064023276757938e-10
3.687668306010929,1.014276357880562e-09
3.695858087431694,1.119484956261234e-09
3.704047868852459,1.223846130952128e-09
3.712237650273224,1.329168607701279e-09
3.720427431693989,1.436354922348447e-09
3.728617213114754,1.544709028271519e-09
3.736806994535519,1.651552604492533e-09
3.744996775956284,1.752454853897025e-09
3.753186557377049,1.841662234573732e-09
3.761376338797815,1.913005108815384e-09
3.769566120218579,1.960911459778295e-09
3.777755901639344,1.981342168652639e-09
3.785945683060109,1.97237809902961e-09
3.794135464480874,1.934450876259522e-09
3.80232524590164,1.870352576132501e-09
3.810515027322404,1.784733712887679e-09
3.81870480874317,1.683587300355008e-09
3.826894590163934,1.573532807715571e-09
3.8350843715847,1.461209171690468e-09
3.843274153005464,1.352535827984914e-09
3.85146393442623,1.252149589115038e-09
3.859653715846995,1.163235514681272e-09
3.86784349726776,1.087385005203986e-09
3.876033278688525,1.024625461933715e-09
3.88422306010929,9.737782640269599e-10
3.892412841530055,9.326576318611551e-10
3.90060262295082,8.986711933237425e-10
3.908792404371585,8.691010311447672e-10
3.91698218579235,8.416662998008142e-10
3.925171967213115,8.149720941834561e-10
3.93336174863388,7.893514441731603e-10
3.941551530054645,7.670163615671475e-10
3.94974131147541,7.521923607955722e-10
3.957931092896175,7.506747428800269e-10
3.96612087431694,7.692141466717355e-10
3.974310655737705,8.139860759037802e-10
3.98250043715847,8.893733634095546e-10
3.990690218579235,9.9669265026858e-10
3.99888,1.133450356459412e-09
4.007069781420765,1.293148957113786e-09
4.015259562841529,1.465776686010337e-09
4.023449344262295,1.638805044245153e-09
4.03163912568306,1.79870419272695e-09
